Date,Open,High,Low,Close,Adj Close,Volume
2022-01-03,122.44000244140625,123.0,119.29000091552734,120.81999969482422,120.42919921875,234900
2022-01-04,121.0,122.91999816894531,119.95999908447266,121.37999725341797,120.98738861083984,337300
2022-01-05,121.23999786376953,124.13999938964844,121.23999786376953,123.05999755859375,122.66194915771484,367600
2022-01-06,123.54000091552734,124.0,122.01000213623047,122.55000305175781,122.15361022949219,231900
2022-01-07,122.72000122070312,123.79000091552734,121.97000122070312,123.68000030517578,123.27995300292969,335100
2022-01-10,122.94999694824219,123.88999938964844,121.68000030517578,122.05000305175781,121.65522766113281,398400
2022-01-11,122.27999877929688,122.9800033569336,120.7300033569336,122.5199966430664,122.12369537353516,135500
2022-01-12,122.31999969482422,123.0,120.62000274658203,121.30000305175781,120.90765380859375,206600
2022-01-13,121.66999816894531,122.33000183105469,120.37000274658203,121.66999816894531,121.27645111083984,193200
2022-01-14,121.27999877929688,121.48999786376953,119.87000274658203,121.18000030517578,120.78803253173828,179000
2022-01-18,120.61000061035156,121.4000015258789,118.83000183105469,120.37000274658203,119.98065948486328,232500
2022-01-19,120.76000213623047,121.9000015258789,120.5,121.41999816894531,121.02725982666016,252600
2022-01-20,120.81999969482422,122.30999755859375,118.80999755859375,118.83000183105469,118.44564056396484,297700
2022-01-21,119.22000122070312,120.06999969482422,115.83000183105469,116.37999725341797,116.00355529785156,351800
2022-01-24,115.58999633789062,117.25,114.02999877929688,117.02999877929688,116.65145874023438,329300
2022-01-25,114.72000122070312,116.94000244140625,113.0999984741211,116.02999877929688,115.65469360351562,470000
2022-01-26,115.77999877929688,117.55000305175781,114.41000366210938,115.19000244140625,114.81741333007812,1542500
2022-01-27,115.77999877929688,118.30000305175781,112.66999816894531,113.6500015258789,113.28239440917969,263900
2022-01-28,113.83000183105469,115.0999984741211,112.44999694824219,115.05000305175781,114.67786407470703,323100
2022-01-31,115.01000213623047,117.33999633789062,114.2300033569336,117.30000305175781,116.92058563232422,486300
2022-02-01,117.08999633789062,118.93000030517578,116.44999694824219,117.4800033569336,117.10000610351562,214000
2022-02-02,116.69999694824219,117.0199966430664,116.01000213623047,116.62000274658203,116.62000274658203,363600
2022-02-03,116.44000244140625,117.37999725341797,114.91000366210938,115.19000244140625,115.19000244140625,167700
2022-02-04,114.68000030517578,116.02999877929688,113.66000366210938,115.26000213623047,115.26000213623047,242700
2022-02-07,115.62000274658203,116.02999877929688,114.33000183105469,114.73999786376953,114.73999786376953,263300
2022-02-08,115.0,116.44000244140625,114.73999786376953,116.05000305175781,116.05000305175781,204200
2022-02-09,117.08000183105469,117.66000366210938,116.19999694824219,116.55000305175781,116.55000305175781,295900
2022-02-10,115.5199966430664,117.25,113.66000366210938,114.61000061035156,114.61000061035156,267100
2022-02-11,115.04000091552734,116.44000244140625,112.87000274658203,113.70999908447266,113.70999908447266,230600
2022-02-14,113.70999908447266,114.51000213623047,112.44000244140625,114.0999984741211,114.0999984741211,266600
2022-02-15,114.66000366210938,116.12999725341797,113.4000015258789,114.0999984741211,114.0999984741211,263000
2022-02-16,114.25,115.08000183105469,113.0999984741211,114.69999694824219,114.69999694824219,271400
2022-02-17,113.95999908447266,116.26000213623047,113.31999969482422,115.61000061035156,115.61000061035156,362400
2022-02-18,116.27999877929688,121.5199966430664,114.41999816894531,118.44000244140625,118.44000244140625,462300
2022-02-22,118.5,120.18000030517578,117.31999969482422,119.0999984741211,119.0999984741211,437200
2022-02-23,119.73999786376953,120.30999755859375,117.5999984741211,117.69000244140625,117.69000244140625,321100
2022-02-24,116.2699966430664,117.33999633789062,114.72000122070312,116.87000274658203,116.87000274658203,349300
2022-02-25,117.16000366210938,121.5999984741211,116.81999969482422,120.97000122070312,120.97000122070312,260100
2022-02-28,119.47000122070312,122.02999877929688,119.27999877929688,121.87999725341797,121.87999725341797,316300
2022-03-01,121.95999908447266,122.94000244140625,118.52999877929688,119.0999984741211,119.0999984741211,325700
2022-03-02,119.08999633789062,120.05999755859375,118.0,118.37999725341797,118.37999725341797,435100
2022-03-03,118.87999725341797,119.75,117.41000366210938,119.33000183105469,119.33000183105469,196100
2022-03-04,118.05000305175781,120.38999938964844,117.69000244140625,120.19000244140625,120.19000244140625,206700
2022-03-07,119.30999755859375,120.3499984741211,116.44999694824219,116.5199966430664,116.5199966430664,337300
2022-03-08,116.95999908447266,118.29000091552734,110.04000091552734,110.19000244140625,110.19000244140625,382800
2022-03-09,111.18000030517578,114.37999725341797,111.18000030517578,113.2699966430664,113.2699966430664,224800
2022-03-10,111.83000183105469,113.66000366210938,111.44000244140625,112.26000213623047,112.26000213623047,223200
2022-03-11,113.30000305175781,113.72000122070312,112.23999786376953,112.30000305175781,112.30000305175781,237100
2022-03-14,112.81999969482422,115.91000366210938,112.7699966430664,114.5199966430664,114.5199966430664,173800
2022-03-15,115.08999633789062,116.93000030517578,114.08999633789062,116.80999755859375,116.80999755859375,199500
2022-03-16,117.72000122070312,119.11000061035156,114.36000061035156,116.98999786376953,116.98999786376953,266800
2022-03-17,117.23999786376953,118.51000213623047,115.2699966430664,118.41000366210938,118.41000366210938,163300
2022-03-18,118.0999984741211,118.83000183105469,116.2699966430664,117.73999786376953,117.73999786376953,286800
2022-03-21,117.7300033569336,118.66999816894531,116.66999816894531,118.66000366210938,118.66000366210938,309100
2022-03-22,119.77999877929688,120.45999908447266,117.36000061035156,117.66999816894531,117.66999816894531,294100
2022-03-23,117.80000305175781,118.0999984741211,114.04000091552734,114.66999816894531,114.66999816894531,256800
2022-03-24,115.0,116.22000122070312,114.0,115.8499984741211,115.8499984741211,210100
2022-03-25,116.8499984741211,117.26000213623047,116.0,117.23999786376953,117.23999786376953,148000
2022-03-28,117.43000030517578,117.56999969482422,115.01000213623047,116.48999786376953,116.48999786376953,167300
2022-03-29,117.51000213623047,119.58999633789062,117.51000213623047,119.31999969482422,119.31999969482422,184700
2022-03-30,119.56999969482422,119.56999969482422,118.23999786376953,118.81999969482422,118.81999969482422,156600
2022-03-31,118.4000015258789,119.83000183105469,117.47000122070312,117.5,117.5,211200
2022-04-01,118.1500015258789,119.63999938964844,117.29000091552734,119.0199966430664,119.0199966430664,400800
2022-04-04,118.72000122070312,118.72000122070312,115.19999694824219,118.41000366210938,118.41000366210938,286300
2022-04-05,117.6500015258789,119.20999908447266,117.58999633789062,117.7300033569336,117.7300033569336,225300
2022-04-06,117.26000213623047,118.91999816894531,116.3499984741211,118.33999633789062,118.33999633789062,194300
2022-04-07,117.91000366210938,120.5999984741211,116.62999725341797,120.0,120.0,331900
2022-04-08,119.80999755859375,122.2300033569336,119.80999755859375,121.41000366210938,121.41000366210938,305300
2022-04-11,121.12999725341797,122.30000305175781,118.95999908447266,118.95999908447266,118.95999908447266,208000
2022-04-12,119.2300033569336,120.19000244140625,116.4000015258789,117.01000213623047,117.01000213623047,187400
2022-04-13,116.88999938964844,118.0,116.88999938964844,117.87999725341797,117.87999725341797,120200
2022-04-14,117.41999816894531,118.69999694824219,116.95999908447266,117.4000015258789,117.4000015258789,163300
2022-04-18,116.77999877929688,117.54000091552734,113.58000183105469,114.01000213623047,114.01000213623047,137100
2022-04-19,114.56999969482422,117.63999938964844,113.51000213623047,117.2300033569336,117.2300033569336,221600
2022-04-20,117.9800033569336,119.75,117.33000183105469,119.5,119.5,141200
2022-04-21,120.25,120.3499984741211,118.33999633789062,118.94000244140625,118.94000244140625,178200
2022-04-22,118.5999984741211,118.5999984741211,116.43000030517578,116.62000274658203,116.62000274658203,179900
2022-04-25,116.5,116.5,112.18000030517578,115.4000015258789,115.4000015258789,379600
2022-04-26,114.37000274658203,115.3499984741211,110.44000244140625,110.58000183105469,110.58000183105469,295300
2022-04-27,110.94000244140625,112.98999786376953,110.56999969482422,111.0999984741211,111.0999984741211,231500
2022-04-28,111.18000030517578,112.23999786376953,109.55000305175781,112.0999984741211,112.0999984741211,289200
2022-04-29,112.5199966430664,116.44999694824219,112.5199966430664,114.83000183105469,114.83000183105469,640200
2022-05-02,115.41999816894531,116.97000122070312,112.06999969482422,113.38999938964844,113.38999938964844,457000
2022-05-03,112.98999786376953,115.37000274658203,112.63999938964844,113.83000183105469,113.83000183105469,225400
2022-05-04,113.36000061035156,116.77999877929688,112.72000122070312,116.75,116.75,346900
2022-05-05,115.48999786376953,116.18000030517578,111.87000274658203,112.80000305175781,112.80000305175781,179000
2022-05-06,111.69000244140625,111.72000122070312,109.76000213623047,111.2300033569336,111.2300033569336,331800
2022-05-09,110.0,111.0999984741211,106.66000366210938,107.01000213623047,107.01000213623047,276700
2022-05-10,107.55999755859375,108.62999725341797,103.94000244140625,104.54000091552734,104.54000091552734,411800
2022-05-11,104.38999938964844,107.41999816894531,103.51000213623047,104.05999755859375,104.05999755859375,297800
2022-05-12,103.72000122070312,106.66000366210938,103.25,106.44999694824219,106.44999694824219,389300
2022-05-13,107.0,108.29000091552734,106.76000213623047,107.51000213623047,107.51000213623047,226900
2022-05-16,107.29000091552734,108.41999816894531,106.3499984741211,108.33000183105469,108.33000183105469,202500
2022-05-17,110.12999725341797,110.38999938964844,108.22000122070312,108.95999908447266,108.95999908447266,311200
2022-05-18,107.98999786376953,108.9000015258789,103.56999969482422,104.06999969482422,104.06999969482422,325900
2022-05-19,103.38999938964844,104.5999984741211,102.26000213623047,103.48999786376953,103.48999786376953,357000
2022-05-20,104.9800033569336,105.30000305175781,97.19000244140625,99.72000122070312,99.72000122070312,796300
2022-05-23,100.94999694824219,104.58999633789062,99.66999816894531,104.22000122070312,104.22000122070312,545200
2022-05-24,104.5,105.62000274658203,102.81999969482422,104.94999694824219,104.94999694824219,567400
2022-05-25,103.4800033569336,105.2699966430664,102.4800033569336,104.44999694824219,104.44999694824219,493400
2022-05-26,105.69999694824219,106.94999694824219,105.27999877929688,106.52999877929688,106.52999877929688,188200
2022-05-27,106.95999908447266,108.93000030517578,106.95999908447266,108.88999938964844,108.88999938964844,178000
2022-05-31,108.08000183105469,109.43000030517578,106.3499984741211,107.08999633789062,107.08999633789062,306100
2022-06-01,107.48999786376953,107.91999816894531,105.62999725341797,107.25,107.25,313900
2022-06-02,107.5999984741211,110.02999877929688,106.83000183105469,109.83000183105469,109.83000183105469,145400
2022-06-03,108.72000122070312,109.76000213623047,108.23999786376953,108.80000305175781,108.80000305175781,139800
2022-06-06,109.58999633789062,110.80999755859375,108.33000183105469,109.25,109.25,207400
2022-06-07,108.63999938964844,110.33999633789062,108.4000015258789,110.18000030517578,110.18000030517578,132900
2022-06-08,108.95999908447266,109.38999938964844,107.26000213623047,107.70999908447266,107.70999908447266,157700
2022-06-09,106.7699966430664,107.69999694824219,105.80000305175781,105.83000183105469,105.83000183105469,193800
2022-06-10,103.58000183105469,105.88999938964844,103.12999725341797,105.19999694824219,105.19999694824219,266800
2022-06-13,102.87000274658203,103.2300033569336,101.05000305175781,102.01000213623047,102.01000213623047,252100
2022-06-14,101.61000061035156,102.27999877929688,98.38999938964844,99.5199966430664,99.5199966430664,227900
2022-06-15,100.30000305175781,101.23999786376953,98.54000091552734,100.37000274658203,100.37000274658203,283300
2022-06-16,98.88999938964844,98.88999938964844,94.02999877929688,94.7699966430664,94.7699966430664,620400
2022-06-17,94.48999786376953,98.45999908447266,94.4800033569336,97.5,97.5,458500
2022-06-21,97.9800033569336,98.69999694824219,97.08999633789062,97.19000244140625,97.19000244140625,236100
2022-06-22,96.37000274658203,98.83999633789062,96.23999786376953,98.45999908447266,98.45999908447266,228200
2022-06-23,98.62000274658203,99.31999969482422,97.16999816894531,98.93000030517578,98.93000030517578,152100
2022-06-24,100.05000305175781,102.6500015258789,99.66999816894531,102.62000274658203,102.62000274658203,327300
2022-06-27,102.62000274658203,104.1500015258789,101.98999786376953,103.56999969482422,103.56999969482422,185200
2022-06-28,104.22000122070312,104.37000274658203,101.9800033569336,102.69999694824219,102.69999694824219,280200
2022-06-29,102.4800033569336,103.88999938964844,101.33999633789062,103.38999938964844,103.38999938964844,220900
2022-06-30,102.33000183105469,103.5,101.37000274658203,103.20999908447266,103.20999908447266,205900
2022-07-01,103.33999633789062,104.66999816894531,102.16000366210938,104.48999786376953,104.48999786376953,262300
2022-07-05,103.33999633789062,103.33999633789062,100.97000122070312,102.91999816894531,102.91999816894531,230200
2022-07-06,103.52999877929688,103.55000305175781,101.51000213623047,102.63999938964844,102.63999938964844,286400
2022-07-07,102.44999694824219,103.30000305175781,101.8499984741211,103.11000061035156,103.11000061035156,221200
2022-07-08,102.7300033569336,103.02999877929688,100.0,100.01000213623047,100.01000213623047,208100
2022-07-11,99.80999755859375,100.12000274658203,98.47000122070312,99.55000305175781,99.55000305175781,186900
2022-07-12,99.47000122070312,101.8499984741211,99.22000122070312,100.51000213623047,100.51000213623047,284300
2022-07-13,99.7300033569336,101.30999755859375,99.51000213623047,100.66999816894531,100.66999816894531,202500
2022-07-14,99.58000183105469,99.91000366210938,98.33999633789062,99.30000305175781,99.30000305175781,199800
2022-07-15,100.80999755859375,100.80999755859375,99.20999908447266,100.01000213623047,100.01000213623047,195300
2022-07-18,100.56999969482422,100.94999694824219,97.69999694824219,98.0999984741211,98.0999984741211,179900
2022-07-19,98.55000305175781,101.08999633789062,98.55000305175781,101.02999877929688,101.02999877929688,635400
2022-07-20,100.66999816894531,102.4800033569336,100.66000366210938,101.81999969482422,101.81999969482422,458900
2022-07-21,101.91000366210938,103.5999984741211,101.58000183105469,103.4800033569336,103.4800033569336,138900
2022-07-22,103.61000061035156,103.9800033569336,102.33000183105469,103.5999984741211,103.5999984741211,214600
2022-07-25,103.72000122070312,104.51000213623047,102.91000366210938,103.91999816894531,103.91999816894531,267400
2022-07-26,103.11000061035156,103.87999725341797,101.87999725341797,103.83000183105469,103.83000183105469,262200
2022-07-27,104.23999786376953,106.54000091552734,103.63999938964844,106.02999877929688,106.02999877929688,229200
2022-07-28,106.08000183105469,107.81999969482422,105.1500015258789,107.81999969482422,107.81999969482422,249800
2022-07-29,107.16999816894531,109.48999786376953,106.38999938964844,107.76000213623047,107.76000213623047,424400
2022-08-01,106.30000305175781,108.6500015258789,105.61000061035156,108.19999694824219,108.19999694824219,277000
2022-08-02,107.86000061035156,108.04000091552734,105.83000183105469,106.58999633789062,106.58999633789062,209700
2022-08-03,107.33000183105469,108.81999969482422,106.44000244140625,107.63999938964844,107.63999938964844,260700
2022-08-04,107.19999694824219,107.22000122070312,105.86000061035156,106.44000244140625,106.44000244140625,292600
2022-08-05,105.66999816894531,106.66999816894531,105.08999633789062,105.6500015258789,105.6500015258789,174600
2022-08-08,106.12999725341797,108.0,106.01000213623047,107.2699966430664,107.2699966430664,219300
2022-08-09,107.76000213623047,108.0,106.48999786376953,107.2699966430664,107.2699966430664,249200
2022-08-10,109.2300033569336,110.73999786376953,108.05000305175781,109.7699966430664,109.7699966430664,152900
2022-08-11,110.63999938964844,111.29000091552734,109.55000305175781,109.62999725341797,109.62999725341797,171100
2022-08-12,110.5199966430664,111.1500015258789,110.13999938964844,111.08000183105469,111.08000183105469,201300
2022-08-15,110.68000030517578,112.43000030517578,110.68000030517578,111.91000366210938,111.91000366210938,146500
2022-08-16,111.16000366210938,112.26000213623047,110.70999908447266,112.06999969482422,112.06999969482422,187700
2022-08-17,111.0,111.47000122070312,110.05000305175781,111.02999877929688,111.02999877929688,173100
2022-08-18,110.94000244140625,111.13999938964844,109.97000122070312,111.02999877929688,111.02999877929688,197300
2022-08-19,111.16999816894531,111.26000213623047,109.55000305175781,110.16000366210938,110.16000366210938,253400
2022-08-22,109.16999816894531,109.30999755859375,107.75,107.91999816894531,107.91999816894531,178300
2022-08-23,107.87999725341797,108.44000244140625,106.01000213623047,106.88999938964844,106.88999938964844,178000
2022-08-24,107.37000274658203,108.06999969482422,106.72000122070312,107.44999694824219,107.44999694824219,183000
2022-08-25,107.54000091552734,108.97000122070312,107.54000091552734,108.97000122070312,108.97000122070312,132900
2022-08-26,109.55000305175781,109.55000305175781,104.16999816894531,104.41000366210938,104.41000366210938,152000
2022-08-29,103.97000122070312,104.47000122070312,102.79000091552734,104.0,104.0,146800
2022-08-30,104.44000244140625,104.66999816894531,102.72000122070312,104.05000305175781,104.05000305175781,148900
2022-08-31,104.37999725341797,104.76000213623047,102.75,102.80999755859375,102.80999755859375,180300
2022-09-01,102.36000061035156,102.87000274658203,101.33000183105469,102.62000274658203,102.62000274658203,212200
2022-09-02,103.33999633789062,104.18000030517578,100.72000122070312,101.43000030517578,101.43000030517578,206000
2022-09-06,101.26000213623047,101.87999725341797,99.80999755859375,100.33000183105469,100.33000183105469,159300
2022-09-07,100.63999938964844,103.62999725341797,100.62000274658203,103.23999786376953,103.23999786376953,164200
2022-09-08,102.26000213623047,105.0199966430664,102.12999725341797,104.88999938964844,104.88999938964844,137900
2022-09-09,105.68000030517578,106.81999969482422,104.68000030517578,106.41000366210938,106.41000366210938,197100
2022-09-12,107.18000030517578,108.2699966430664,106.73999786376953,107.11000061035156,107.11000061035156,154500
2022-09-13,105.16000366210938,105.75,103.9800033569336,104.0199966430664,104.0199966430664,271700
2022-09-14,103.80999755859375,104.30999755859375,102.44999694824219,103.58000183105469,103.58000183105469,250700
2022-09-15,103.25,105.4000015258789,103.22000122070312,105.19999694824219,105.19999694824219,423000
2022-09-16,104.33000183105469,104.33000183105469,101.4000015258789,102.63999938964844,102.63999938964844,579400
2022-09-19,101.8499984741211,104.55000305175781,101.83999633789062,104.52999877929688,104.52999877929688,194400
2022-09-20,103.44999694824219,103.44999694824219,100.69000244140625,101.18000030517578,101.18000030517578,157500
2022-09-21,101.79000091552734,102.27999877929688,99.62999725341797,99.66999816894531,99.66999816894531,173500
2022-09-22,99.13999938964844,99.13999938964844,97.2699966430664,98.12000274658203,98.12000274658203,199200
2022-09-23,96.93000030517578,98.30999755859375,96.93000030517578,98.08000183105469,98.08000183105469,274900
2022-09-26,97.5,98.44999694824219,96.43000030517578,97.41000366210938,97.41000366210938,364000
2022-09-27,97.98999786376953,98.80000305175781,95.2300033569336,96.05999755859375,96.05999755859375,238600
2022-09-28,96.75,98.5,96.05000305175781,98.23999786376953,98.23999786376953,237000
2022-09-29,97.22000122070312,97.26000213623047,96.2699966430664,96.7699966430664,96.7699966430664,206400
2022-09-30,96.12000274658203,97.76000213623047,94.87000274658203,95.02999877929688,95.02999877929688,471500
2022-10-03,96.45999908447266,98.0199966430664,95.66000366210938,97.44000244140625,97.44000244140625,274200
2022-10-04,99.08999633789062,99.83000183105469,98.51000213623047,99.2300033569336,99.2300033569336,262900
2022-10-05,98.08999633789062,99.4800033569336,97.02999877929688,98.18000030517578,98.18000030517578,201300
2022-10-06,97.66000366210938,98.19999694824219,96.31999969482422,97.73999786376953,97.73999786376953,202100
2022-10-07,96.93000030517578,96.93000030517578,93.5999984741211,93.9800033569336,93.9800033569336,119000
2022-10-10,94.38999938964844,95.47000122070312,93.91000366210938,94.37000274658203,94.37000274658203,177300
2022-10-11,93.80000305175781,95.6500015258789,93.30000305175781,94.73999786376953,94.73999786376953,369800
2022-10-12,94.76000213623047,94.76000213623047,93.2699966430664,93.37000274658203,93.37000274658203,147400
2022-10-13,91.06999969482422,95.02999877929688,90.2300033569336,94.55999755859375,94.55999755859375,237000
2022-10-14,95.4000015258789,95.91999816894531,94.11000061035156,95.08000183105469,95.08000183105469,319300
2022-10-17,96.0199966430664,97.37000274658203,96.0199966430664,97.31999969482422,97.31999969482422,344900
2022-10-18,99.25,99.9800033569336,98.0999984741211,99.27999877929688,99.27999877929688,281300
2022-10-19,98.70999908447266,99.20999908447266,97.58999633789062,98.20999908447266,98.20999908447266,359500
2022-10-20,98.08000183105469,98.69999694824219,95.43000030517578,96.06999969482422,96.06999969482422,185600
2022-10-21,95.55999755859375,97.91999816894531,94.52999877929688,97.5199966430664,97.5199966430664,176400
2022-10-24,97.9000015258789,98.80000305175781,97.2699966430664,97.88999938964844,97.88999938964844,158500
2022-10-25,96.47000122070312,99.43000030517578,95.97000122070312,99.20999908447266,99.20999908447266,292500
2022-10-26,99.8499984741211,101.05000305175781,98.95999908447266,99.08999633789062,99.08999633789062,271900
2022-10-27,99.11000061035156,100.63999938964844,98.87000274658203,99.08999633789062,99.08999633789062,216700
2022-10-28,101.94999694824219,104.12000274658203,99.22000122070312,101.12999725341797,101.12999725341797,445300
2022-10-31,99.95999908447266,100.5999984741211,99.0999984741211,99.1500015258789,99.1500015258789,372900
2022-11-01,99.5999984741211,99.5999984741211,96.87999725341797,97.22000122070312,97.22000122070312,301300
2022-11-02,97.19000244140625,97.75,94.56999969482422,94.76000213623047,94.76000213623047,268400
2022-11-03,94.27999877929688,95.0199966430664,92.55000305175781,94.70999908447266,94.70999908447266,278300
2022-11-04,96.44000244140625,98.77999877929688,96.2300033569336,98.7699966430664,98.7699966430664,209100
2022-11-07,99.19000244140625,100.5199966430664,97.9800033569336,100.48999786376953,100.48999786376953,180700
2022-11-08,101.0,101.76000213623047,100.12999725341797,100.3499984741211,100.3499984741211,153100
2022-11-09,100.2300033569336,100.87999725341797,98.55000305175781,99.12000274658203,99.12000274658203,165300
2022-11-10,102.83000183105469,103.25,101.04000091552734,102.33000183105469,102.33000183105469,266000
2022-11-11,102.83999633789062,105.08000183105469,101.45999908447266,104.25,104.25,292600
2022-11-14,103.61000061035156,105.2699966430664,103.61000061035156,104.4000015258789,104.4000015258789,238400
2022-11-15,105.83000183105469,107.01000213623047,104.27999877929688,104.69000244140625,104.69000244140625,272500
2022-11-16,104.86000061035156,105.88999938964844,104.69999694824219,104.91999816894531,104.91999816894531,139300
2022-11-17,103.70999908447266,105.06999969482422,103.70999908447266,104.61000061035156,104.61000061035156,162700
2022-11-18,106.11000061035156,106.93000030517578,104.61000061035156,106.04000091552734,106.04000091552734,213200
2022-11-21,106.0999984741211,106.69999694824219,104.93000030517578,105.13999938964844,105.13999938964844,193300
2022-11-22,105.23999786376953,106.66000366210938,105.23999786376953,106.0,106.0,284000
2022-11-23,105.98999786376953,106.77999877929688,105.58000183105469,106.19000244140625,106.19000244140625,202100
2022-11-25,106.55000305175781,106.55000305175781,105.55999755859375,105.91000366210938,105.91000366210938,114700
2022-11-28,105.04000091552734,105.48999786376953,103.23999786376953,103.5,103.5,208500
2022-11-29,103.0,104.0999984741211,102.93000030517578,103.30999755859375,103.30999755859375,181400
2022-11-30,102.88999938964844,106.18000030517578,101.5,106.13999938964844,106.13999938964844,297900
2022-12-01,106.77999877929688,107.77999877929688,106.51000213623047,107.08999633789062,107.08999633789062,156600
2022-12-02,106.26000213623047,108.55000305175781,106.0999984741211,108.05000305175781,108.05000305175781,167400
2022-12-05,106.86000061035156,106.93000030517578,105.68000030517578,106.69999694824219,106.69999694824219,153800
2022-12-06,106.55000305175781,107.08000183105469,105.37000274658203,107.0,107.0,247800
2022-12-07,106.7300033569336,108.16000366210938,106.19999694824219,106.30000305175781,106.30000305175781,152800
2022-12-08,106.44999694824219,107.94000244140625,106.44999694824219,107.93000030517578,107.93000030517578,190800
2022-12-09,107.83000183105469,108.9800033569336,107.6500015258789,108.05999755859375,108.05999755859375,316700
2022-12-12,108.45999908447266,108.77999877929688,107.48999786376953,108.08000183105469,108.08000183105469,209100
